TIME[ns],    Itot[uA],
0    -0.528217
0.021413    -0.527435
0.042826    -0.526113
0.064239    -0.524799
0.085652    -0.523981
0.107065    -0.522656
0.128478    -0.521321
0.149891    -0.519977
0.171304    -0.519325
0.192717    -0.517982
0.21413    -0.516615
0.235543    -0.515859
0.256956    -0.514499
0.278369    -0.513149
0.299782    -0.511806
0.321195    -0.511028
0.342608    -0.509804
0.364021    -0.508457
0.385434    -0.50765
0.406847    -0.506302
0.42826    -0.504947
0.449673    -0.504154
0.471086    -0.502807
0.492499    -0.501583
0.513912    -0.50023
0.535325    -0.49941
0.556738    -0.498048
0.578151    -0.49729
0.599564    -0.495912
0.620977    -0.494579
0.64239    -0.493735
0.663803    -0.49256
0.685216    -0.491159
0.706629    -0.490415
0.728042    -0.489012
0.749455    -0.487644
0.770868    -0.486843
0.792281    -0.485486
0.813694    -0.484708
0.835107    -0.483462
0.85652    -0.48263
0.877933    -0.481317
0.899346    -0.479912
0.920759    -0.479108
0.942172    -0.47778
0.963585    -0.476954
0.984998    -0.475709
1.00641    -0.474942
1.02782    -0.473556
1.04924    -0.472733
1.07065    -0.471353
1.09206    -0.470023
1.11348    -0.469195
1.13489    -0.467836
1.1563    -0.46717
1.17772    -0.465804
1.19913    -0.464982
1.22054    -0.463646
1.24195    -0.462844
1.26337    -0.461464
1.28478    -0.460628
1.30619    -0.459426
1.32761    -0.458616
1.34902    -0.457782
1.37043    -0.456423
1.39185    -0.455632
1.41326    -0.454263
1.43467    -0.453461
1.45608    -0.452065
1.4775    -0.451424
1.49891    -0.450033
1.52032    -0.449209
1.54174    -0.448437
1.56315    -0.447094
1.58456    -0.446255
1.60598    -0.444913
1.62739    -0.444072
1.6488    -0.443409
1.67021    -0.442077
1.69163    -0.441228
1.71304    -0.439865
1.73445    -0.439102
1.75587    -0.438272
1.77728    -0.436898
1.79869    -0.436224
1.82011    -0.434848
1.84152    -0.434034
1.86293    -0.433236
1.88434    -0.431889
1.90576    -0.431083
1.92717    -0.430278
1.94858    -0.428939
1.97    -0.428253
1.99141    -0.427445
2.01282    -0.426075
2.03424    -0.425318
2.05565    -0.424473
2.07706    -0.423099
2.09847    -0.422282
2.11989    -0.421112
2.1413    -0.420273
2.16271    -0.419444
2.18413    -0.418652
2.20554    -0.417342
2.22695    -0.416519
2.24837    -0.415695
2.26978    -0.414342
2.29119    -0.413707
2.3126    -0.4129
2.33402    -0.411528
2.35543    -0.410719
2.37684    -0.409944
2.39826    -0.408579
2.41967    -0.407768
2.44108    -0.406962
2.4625    -0.405757
2.48391    -0.404941
2.50532    -0.404144
2.52673    -0.403344
2.54815    -0.40203
2.56956    -0.40121
2.59097    -0.400398
2.61239    -0.399183
2.6338    -0.398399
2.65521    -0.397599
2.67663    -0.396782
2.69804    -0.39545
2.71945    -0.394653
2.74086    -0.393888
2.76228    -0.392489
2.78369    -0.391836
2.8051    -0.391035
2.82652    -0.390258
2.84793    -0.388909
2.86934    -0.388097
2.89076    -0.387304
2.91217    -0.386522
2.93358    -0.385182
2.95499    -0.384508
2.97641    -0.383701
2.99782    -0.382903
3.01923    -0.381595
3.04065    -0.380801
3.06206    -0.379993
3.08347    -0.379204
3.10489    -0.377993
3.1263    -0.377215
3.14771    -0.376421
3.16912    -0.375595
3.19054    -0.374268
3.21195    -0.373493
3.23336    -0.372705
3.25478    -0.371916
3.27619    -0.370678
3.2976    -0.369891
3.31902    -0.369142
3.34043    -0.368349
3.36184    -0.366987
3.38325    -0.366196
3.40467    -0.365411
3.42608    -0.364767
3.44749    -0.363426
3.46891    -0.362617
3.49032    -0.361832
3.51173    -0.361028
3.53315    -0.35973
3.55456    -0.35893
3.57597    -0.358144
3.59738    -0.357481
3.6188    -0.356701
3.64021    -0.355373
3.66162    -0.354578
3.68304    -0.353781
3.70445    -0.353019
3.72586    -0.351681
3.74728    -0.350899
3.76869    -0.350232
3.7901    -0.349437
3.81151    -0.348113
3.83293    -0.347335
3.85434    -0.346538
3.87575    -0.345766
3.89717    -0.344977
3.91858    -0.343775
3.93999    -0.343006
3.96141    -0.34221
3.98282    -0.341428
4.00423    -0.3401
4.02564    -0.339305
4.04706    -0.338545
4.06847    -0.337764
4.08988    -0.337113
4.1113    -0.33576
4.13271    -0.334978
4.15412    -0.3342
4.17554    -0.33342
4.19695    -0.332645
4.21836    -0.331313
4.23977    -0.33068
4.26119    -0.329878
4.2826    -0.32911
4.30401    -0.327775
4.32543    -0.32699
4.34684    -0.326226
4.36825    -0.325423
4.38967    -0.324673
4.41108    -0.323455
4.43249    -0.322666
4.4539    -0.321905
4.47532    -0.321113
4.49673    -0.319808
4.51814    -0.318999
4.53956    -0.318213
4.56097    -0.317451
4.58238    -0.316789
4.6038    -0.315482
4.62521    -0.314678
4.64662    -0.313896
4.66803    -0.313139
4.68945    -0.312349
4.71086    -0.311048
4.73227    -0.31037
4.75369    -0.309582
4.7751    -0.308826
4.79651    -0.308034
4.81793    -0.306733
4.83934    -0.305923
4.86075    -0.305142
4.88216    -0.304374
4.90358    -0.303715
4.92499    -0.302413
4.9464    -0.301602
4.96782    -0.30083
4.98923    -0.300063
5.01064    -0.298718
5.03206    -0.297965
5.05347    -0.297163
5.07488    -0.29652
5.09629    -0.295747
5.11771    -0.294406
5.13912    -0.293652
5.16053    -0.29285
5.18195    -0.292071
5.20336    -0.291299
5.22477    -0.290097
5.24619    -0.289335
5.2676    -0.288529
5.28901    -0.287754
5.31042    -0.28698
5.33184    -0.285651
5.35325    -0.284886
5.37466    -0.284082
5.39608    -0.283432
5.41749    -0.282661
5.4389    -0.281335
5.46032    -0.280567
5.48173    -0.279761
5.50314    -0.278981
5.52455    -0.278207
5.54597    -0.276888
5.56738    -0.276241
5.58879    -0.275435
5.61021    -0.274652
5.63162    -0.273876
5.65303    -0.272556
5.67445    -0.271775
5.69586    -0.270969
5.71727    -0.270316
5.73868    -0.269543
5.7601    -0.268225
5.78151    -0.267436
5.80292    -0.266634
5.82434    -0.265851
5.84575    -0.265073
5.86716    -0.26374
5.88858    -0.263091
5.90999    -0.262291
5.9314    -0.261506
5.95281    -0.260725
5.97423    -0.259389
5.99564    -0.258593
6.01705    -0.257798
6.03847    -0.257143
6.05988    -0.256366
6.08129    -0.255022
6.10271    -0.254224
6.12412    -0.253436
6.14553    -0.25265
6.16694    -0.251863
6.18836    -0.25052
6.20977    -0.249853
6.23118    -0.249061
6.2526    -0.24827
6.27401    -0.247483
6.29542    -0.246135
6.31684    -0.245333
6.33825    -0.244535
6.35966    -0.243744
6.38107    -0.243084
6.40249    -0.241732
6.4239    -0.240924
6.44531    -0.240127
6.46673    -0.239332
6.48814    -0.238541
6.50955    -0.237187
6.53097    -0.236507
6.55238    -0.235705
6.57379    -0.234904
6.5952    -0.234105
6.61662    -0.232748
6.63803    -0.231936
6.65944    -0.231131
6.68086    -0.230324
6.70227    -0.229649
6.72368    -0.228287
6.7451    -0.227466
6.76651    -0.226656
6.78792    -0.225849
6.80933    -0.225043
6.83075    -0.223677
6.85216    -0.222851
6.87357    -0.22216
6.89499    -0.221348
6.9164    -0.220522
6.93781    -0.219164
6.95923    -0.218337
6.98064    -0.217516
7.00205    -0.216692
7.02346    -0.215988
7.04488    -0.214608
7.06629    -0.213783
7.0877    -0.212951
7.10912    -0.21213
7.13053    -0.211289
7.15194    -0.209903
7.17336    -0.209065
7.19477    -0.208356
7.21618    -0.20751
7.23759    -0.206649
7.25901    -0.205288
7.28042    -0.204449
7.30183    -0.203597
7.32325    -0.202728
7.34466    -0.201869
7.36607    -0.200618
7.38749    -0.199775
7.4089    -0.198916
7.43031    -0.198045
7.45172    -0.197175
7.47314    -0.195778
7.49455    -0.194926
7.51596    -0.194174
7.53738    -0.193299
7.55879    -0.192427
7.5802    -0.191027
7.60162    -0.190157
7.62303    -0.189265
7.64444    -0.188365
7.66585    -0.187482
7.68727    -0.186202
7.70868    -0.185336
7.73009    -0.184424
7.75151    -0.183512
7.77292    -0.182608
7.79433    -0.181179
7.81575    -0.18028
7.83716    -0.179379
7.85857    -0.178592
7.87998    -0.177674
7.9014    -0.176222
7.92281    -0.175298
7.94422    -0.174373
7.96564    -0.173443
7.98705    -0.17252
8.00846    -0.171194
8.02988    -0.170245
8.05129    -0.169305
8.0727    -0.168332
8.09411    -0.167409
8.11553    -0.165926
8.13694    -0.164983
8.15835    -0.164014
8.17977    -0.163154
8.20118    -0.162201
8.22259    -0.1607
8.24401    -0.159726
8.26542    -0.158751
8.28683    -0.157754
8.30824    -0.156769
8.32966    -0.155235
8.35107    -0.154373
8.37248    -0.153366
8.3939    -0.152352
8.41531    -0.151359
8.43672    -0.149806
8.45814    -0.148778
8.47955    -0.147751
8.50096    -0.14683
8.52237    -0.145817
8.54379    -0.144242
8.5652    -0.143208
8.58661    -0.142141
8.60803    -0.141069
8.62944    -0.140019
8.65085    -0.138407
8.67227    -0.137478
8.69368    -0.136421
8.71509    -0.135309
8.7365    -0.134221
8.75792    -0.132558
8.77933    -0.131492
8.80074    -0.130396
8.82216    -0.129293
8.84357    -0.128296
8.86498    -0.12661
8.8864    -0.125504
8.90781    -0.12437
8.92922    -0.123228
8.95063    -0.122109
8.97205    -0.120386
8.99346    -0.119388
9.01487    -0.118217
9.03629    -0.117053
9.0577    -0.115883
9.07911    -0.114165
9.10053    -0.113004
9.12194    -0.111814
9.14335    -0.110617
9.16476    -0.109556
9.18618    -0.107808
9.20759    -0.10664
9.229    -0.105422
9.25042    -0.104209
9.27183    -0.102992
9.29324    -0.101778
9.31466    -0.100012
9.33607    -0.0989361
9.35748    -0.0977029
9.37889    -0.0964729
9.40031    -0.0952408
9.42172    -0.0934618
9.44313    -0.0922297
9.46455    -0.0909992
9.48596    -0.0898892
9.50737    -0.0886494
9.52879    -0.0868583
9.5502    -0.0856194
9.57161    -0.0843802
9.59302    -0.0831407
9.61444    -0.0830068
9.63585    -0.0828729
9.65726    -0.0828688
9.67868    -0.0827344
9.70009    -0.0826004
9.7215    -0.0824663
9.74292    -0.0823318
9.76433    -0.0821975
9.78574    -0.0820636
9.80715    -0.0819291
9.82857    -0.0819253
9.84998    -0.081791
9.87139    -0.0816571
9.89281    -0.0815232
9.91422    -0.0813898
9.93563    -0.081256
9.95705    -0.0811225
9.97846    -0.0809891
9.99987    -0.0809852
10.0213    -0.0808515
10.0427    -0.0807177
10.0641    -0.0805843
10.0855    -0.0804508
10.1069    -0.0803171
10.1283    -0.0801838
10.1498    -0.0801805
10.1712    -0.0800464
10.1926    -0.079913
10.214    -0.0797792
10.2354    -0.0796459
10.2568    -0.0795123
10.2782    -0.0793778
10.2997    -0.0792448
10.3211    -0.079242
10.3425    -0.079109
10.3639    -0.0789761
10.3853    -0.0788428
10.4067    -0.0787099
10.4281    -0.078577
10.4495    -0.0784436
10.471    -0.0783105
10.4924    -0.0783072
10.5138    -0.0781742
10.5352    -0.0780413
10.5566    -0.077908
10.578    -0.077775
10.5994    -0.0776416
10.6208    -0.0775088
10.6423    -0.0773754
10.6637    -0.0773727
10.6851    -0.0772399
10.7065    -0.0771068
10.7279    -0.0769743
10.7493    -0.0768415
10.7707    -0.0767089
10.7922    -0.0765763
10.8136    -0.0764434
10.835    -0.076441
10.8564    -0.0763083
10.8778    -0.0761754
10.8992    -0.0760425
10.9206    -0.07591
10.942    -0.0757773
10.9635    -0.0756445
10.9849    -0.0756416
11.0063    -0.075509
11.0277    -0.0753761
11.0491    -0.0752435
11.0705    -0.0751113
11.0919    -0.0749789
11.1133    -0.0748466
11.1348    -0.0747144
11.1562    -0.074712
11.1776    -0.0745795
11.199    -0.0744471
11.2204    -0.0743147
11.2418    -0.0741825
11.2632    -0.07405
11.2847    -0.0739178
11.3061    -0.0737852
11.3275    -0.0737832
11.3489    -0.073651
11.3703    -0.0735184
11.3917    -0.0733862
11.4131    -0.073254
11.4345    -0.0731213
11.456    -0.0729889
11.4774    -0.0728569
11.4988    -0.0728552
11.5202    -0.0727231
11.5416    -0.072591
11.563    -0.072459
11.5844    -0.0723268
11.6058    -0.0721948
11.6273    -0.0720627
11.6487    -0.0719307
11.6701    -0.0719289
11.6915    -0.0717967
11.7129    -0.0716645
11.7343    -0.0715326
11.7557    -0.0714004
11.7772    -0.0712685
11.7986    -0.0711365
11.82    -0.0710044
11.8414    -0.0710026
11.8628    -0.0708709
11.8842    -0.070739
11.9056    -0.070607
11.927    -0.0704753
11.9485    -0.0703435
11.9699    -0.0702118
11.9913    -0.0700799
12.0127    -0.0700783
12.0341    -0.0699464
12.0555    -0.0698147
12.0769    -0.069683
12.0983    -0.0695511
12.1198    -0.0694194
12.1412    -0.0692877
12.1626    -0.069286
12.184    -0.0691539
12.2054    -0.0690219
12.2268    -0.0688902
12.2482    -0.0687587
12.2696    -0.0686271
12.2911    -0.0684956
12.3125    -0.0683641
12.3339    -0.0683627
12.3553    -0.0682312
12.3767    -0.0680996
12.3981    -0.0679681
12.4195    -0.0678364
12.441    -0.0677048
12.4624    -0.0675733
12.4838    -0.0674416
12.5052    -0.0674403
12.5266    -0.0673088
12.548    -0.0671773
12.5694    -0.0670457
12.5908    -0.0669143
12.6123    -0.0667825
12.6337    -0.0666509
12.6551    -0.0665197
12.6765    -0.0665184
12.6979    -0.0663871
12.7193    -0.0662558
12.7407    -0.0661244
12.7621    -0.0659931
12.7836    -0.0658616
12.805    -0.0657303
12.8264    -0.065599
12.8478    -0.0655977
12.8692    -0.0654664
12.8906    -0.0653351
12.912    -0.0652034
12.9335    -0.065072
12.9549    -0.0649407
12.9763    -0.0648094
12.9977    -0.0646781
13.0191    -0.0646768
13.0405    -0.0645457
13.0619    -0.0644144
13.0833    -0.0642833
13.1048    -0.0641522
13.1262    -0.0640209
13.1476    -0.0638897
13.169    -0.0637585
13.1904    -0.0637574
13.2118    -0.0636263
13.2332    -0.063495
13.2546    -0.0633639
13.2761    -0.0632328
13.2975    -0.0631017
13.3189    -0.0629704
13.3403    -0.0628392
13.3617    -0.062708
13.3831    -0.0627067
13.4045    -0.0625755
13.426    -0.0624445
13.4474    -0.0623136
13.4688    -0.0621826
13.4902    -0.0620515
13.5116    -0.0619205
13.533    -0.0617894
13.5544    -0.0617885
13.5758    -0.0616574
13.5973    -0.0615264
13.6187    -0.0613954
13.6401    -0.0612643
13.6615    -0.0611332
13.6829    -0.061002
13.7043    -0.0608711
13.7257    -0.0608702
13.7471    -0.0607392
13.7686    -0.0606082
13.79    -0.0604772
13.8114    -0.0603461
13.8328    -0.0602152
13.8542    -0.0600843
13.8756    -0.0599533
13.897    -0.0599526
13.9185    -0.0598216
13.9399    -0.0596907
13.9613    -0.0595598
13.9827    -0.0594288
14.0041    -0.059298
14.0255    -0.0591671
14.0469    -0.0590362
14.0683    -0.0590354
14.0898    -0.0589045
14.1112    -0.0587736
14.1326    -0.0586425
14.154    -0.0585116
14.1754    -0.0583807
14.1968    -0.0582498
14.2182    -0.058119
14.2396    -0.0579882
14.2611    -0.0579876
14.2825    -0.0578567
14.3039    -0.057726
14.3253    -0.0575952
14.3467    -0.0574644
14.3681    -0.0573336
14.3895    -0.0572027
14.411    -0.0570719
14.4324    -0.0570712
14.4538    -0.0569404
14.4752    -0.0568096
14.4966    -0.0566789
14.518    -0.056548
14.5394    -0.0564173
14.5608    -0.0562864
14.5823    -0.0561557
14.6037    -0.0560248
14.6251    -0.0560243
14.6465    -0.0558936
14.6679    -0.0557629
14.6893    -0.0556322
14.7107    -0.0555015
14.7321    -0.0553707
14.7536    -0.05524
14.775    -0.0551093
14.7964    -0.0551087
14.8178    -0.054978
14.8392    -0.0548473
14.8606    -0.0547166
14.882    -0.0545859
14.9034    -0.054455
14.9249    -0.0543244
14.9463    -0.0541937
14.9677    -0.054063
14.9891    -0.0540624
15.0105    -0.0539318
15.0319    -0.0538011
15.0533    -0.0536705
15.0748    -0.0535399
15.0962    -0.0534093
15.1176    -0.0532787
15.139    -0.053148
15.1604    -0.0531475
15.1818    -0.0530169
15.2032    -0.0528863
15.2246    -0.0527557
15.2461    -0.0526251
15.2675    -0.0524945
15.2889    -0.0523638
15.3103    -0.0522332
15.3317    -0.0521025
15.3531    -0.052102
15.3745    -0.0519714
15.3959    -0.0518409
15.4174    -0.0517103
15.4388    -0.0515798
15.4602    -0.0514492
15.4816    -0.0513186
15.503    -0.051188
15.5244    -0.0510575
15.5458    -0.0510571
15.5673    -0.0509265
15.5887    -0.050796
15.6101    -0.0506654
15.6315    -0.0505348
15.6529    -0.0504042
15.6743    -0.0502737
15.6957    -0.0501432
15.7171    -0.0500126
15.7386    -0.0500122
15.76    -0.0498817
15.7814    -0.0497511
15.8028    -0.0496206
15.8242    -0.0494901
15.8456    -0.0493596
15.867    -0.0492291
15.8884    -0.0490986
15.9099    -0.0489681
15.9313    -0.0489678
15.9527    -0.0488372
15.9741    -0.0487068
15.9955    -0.0485763
16.0169    -0.0484458
16.0383    -0.0483153
16.0598    -0.0481849
16.0812    -0.0480543
16.1026    -0.0479238
16.124    -0.0479234
16.1454    -0.0477929
16.1668    -0.0476624
16.1882    -0.047532
16.2096    -0.0474016
16.2311    -0.0472711
16.2525    -0.0471407
16.2739    -0.0470103
16.2953    -0.0468798
16.3167    -0.0468795
16.3381    -0.0467491
16.3595    -0.0466186
16.3809    -0.0464882
16.4024    -0.0463577
16.4238    -0.0462272
16.4452    -0.0460968
16.4666    -0.0459664
16.488    -0.045836
16.5094    -0.0457055
16.5308    -0.0457052
16.5523    -0.0455748
16.5737    -0.0454444
16.5951    -0.0453139
16.6165    -0.0451836
16.6379    -0.0450532
16.6593    -0.0449228
16.6807    -0.0447924
16.7021    -0.044662
16.7236    -0.0445316
16.745    -0.0445313
16.7664    -0.0444009
16.7878    -0.0442705
16.8092    -0.0441402
16.8306    -0.0440098
16.852    -0.0438794
16.8734    -0.0437489
16.8949    -0.0436185
16.9163    -0.0434881
16.9377    -0.0434879
16.9591    -0.0433575
16.9805    -0.0432271
17.0019    -0.0430968
17.0233    -0.0429664
17.0447    -0.0428361
17.0662    -0.0427057
17.0876    -0.0425754
17.109    -0.042445
17.1304    -0.0423147
17.1518    -0.0421843
17.1732    -0.042184
17.1946    -0.0420537
17.2161    -0.0419233
17.2375    -0.041793
17.2589    -0.0416627
17.2803    -0.0415323
17.3017    -0.041402
17.3231    -0.0412716
17.3445    -0.0411412
17.3659    -0.0410109
17.3874    -0.0410107
17.4088    -0.0408804
17.4302    -0.0407501
17.4516    -0.0406197
17.473    -0.0404894
17.4944    -0.0403591
17.5158    -0.0402288
17.5372    -0.0400985
17.5587    -0.0399681
17.5801    -0.0398378
17.6015    -0.0397075
17.6229    -0.0397073
17.6443    -0.0395769
17.6657    -0.0394466
17.6871    -0.0393163
17.7086    -0.039186
17.73    -0.0390557
17.7514    -0.0389253
17.7728    -0.0387951
17.7942    -0.0386648
17.8156    -0.0385345
17.837    -0.0384042
17.8584    -0.038404
17.8799    -0.0382738
17.9013    -0.0381434
17.9227    -0.0380132
17.9441    -0.0378828
17.9655    -0.0377526
17.9869    -0.0376223
18.0083    -0.037492
18.0297    -0.0373617
18.0512    -0.0372314
18.0726    -0.0371011
18.094    -0.0369708
18.1154    -0.0369707
18.1368    -0.0368404
18.1582    -0.0367101
18.1796    -0.0365798
18.2011    -0.0364496
18.2225    -0.0363193
18.2439    -0.036189
18.2653    -0.0360588
18.2867    -0.0359285
18.3081    -0.0357982
18.3295    -0.035668
18.3509    -0.0355377
18.3724    -0.0355376
18.3938    -0.0354073
18.4152    -0.035277
18.4366    -0.0351467
18.458    -0.0350165
18.4794    -0.0348862
18.5008    -0.034756
18.5222    -0.0346257
18.5437    -0.0344954
18.5651    -0.0343652
18.5865    -0.0342349
18.6079    -0.0341047
18.6293    -0.0339745
18.6507    -0.0338442
18.6721    -0.0338441
18.6936    -0.0337138
18.715    -0.0335836
18.7364    -0.0334534
18.7578    -0.0333231
18.7792    -0.0331929
18.8006    -0.0330626
18.822    -0.0329324
18.8434    -0.0328021
18.8649    -0.0326719
18.8863    -0.0325416
18.9077    -0.0324114
18.9291    -0.0322812
18.9505    -0.0321509
18.9719    -0.0320207
18.9933    -0.0320206
19.0147    -0.0318904
19.0362    -0.0317602
19.0576    -0.0316299
19.079    -0.0314997
19.1004    -0.0313695
19.1218    -0.0312393
19.1432    -0.031109
19.1646    -0.0309788
19.186    -0.0308486
19.2075    -0.0307183
19.2289    -0.0305881
19.2503    -0.0304579
19.2717    -0.0303277
19.2931    -0.0301975
19.3145    -0.0300672
19.3359    -0.029937
19.3574    -0.0299369
19.3788    -0.0298067
19.4002    -0.0296765
19.4216    -0.0295463
19.443    -0.0294161
19.4644    -0.0292859
19.4858    -0.0291557
19.5072    -0.0290255
19.5287    -0.0288953
19.5501    -0.0287651
19.5715    -0.0286348
19.5929    -0.0285046
19.6143    -0.0283744
19.6357    -0.0282442
19.6571    -0.028114
19.6785    -0.0279838
19.7    -0.0278536
19.7214    -0.0277234
19.7428    -0.0275932
19.7642    -0.027463
19.7856    -0.0274629
19.807    -0.0273327
19.8284    -0.0272025
19.8499    -0.0270723
19.8713    -0.0269421
19.8927    -0.0268119
19.9141    -0.0266817
19.9355    -0.0265515
19.9569    -0.0264213
19.9783    -0.0262912
19.9997    -0.026161
